{
  "aor": 0.016980535714285715,
  "aqi": 0.004920365119047619,
  "bids_meta": {
    "CogAtlasID": "http://www.cognitiveatlas.org/task/id/trm_4c898da401420",
    "EchoTime": 0.03,
    "EffectiveEchoSpacing": 0.0005,
    "FlipAngle": 90,
    "MagneticFieldStrength": 3,
    "Manufacturer": "Siemens",
    "ManufacturersModelName": "TrioTim",
    "PhaseEncodingDirection": "j-",
    "RepetitionTime": 2,
    "SliceTiming": [
      1.925,
      1.8625,
      1.8,
      1.7375,
      1.675,
      1.615,
      1.5525,
      1.49,
      1.4275,
      1.365,
      1.3025,
      1.24,
      1.18,
      1.1175,
      1.055,
      0.9925,
      0.93,
      0.8675,
      0.8075,
      0.745,
      0.6825,
      0.62,
      0.5575,
      0.495,
      0.435,
      0.3725,
      0.31,
      0.2475,
      0.185,
      0.1225,
      0.06,
      0
    ],
    "TaskName": "pixar",
    "dcmmeta_affine": [
      -2.9796619415283203,
      -0.33289143443107605,
      -0.11430519819259644,
      100.988525390625,
      -0.34855207800865173,
      2.8140299320220947,
      1.077633023262024,
      -59.2510871887207,
      0.011235315352678299,
      -0.9850980639457703,
      3.116992235183716,
      0.3951103985309601,
      0.0,
      0.0,
      0.0,
      1.0
    ],
    "dcmmeta_reorient_transform": [
      [
        0.0,
        -1.0,
        0.0,
        63.0
      ],
      [
        1.0,
        0.0,
        0.0,
        0.0
      ],
      [
        0.0,
        0.0,
        1.0,
        0.0
      ],
      [
        0.0,
        0.0,
        0.0,
        1.0
      ]
    ],
    "dcmmeta_shape": [
      64,
      64,
      32,
      168
    ],
    "dcmmeta_slice_dim": 2,
    "dcmmeta_version": 0.6,
    "global": {
      "const": {
        "AccessionNumber": "",
        "AcquisitionMatrix": [
          64,
          0,
          0,
          64
        ],
        "AngioFlag": "N",
        "BitsAllocated": 16,
        "BitsStored": 12,
        "Columns": 384,
        "CsaImage.AcquisitionMatrixText": "64*64",
        "CsaImage.BandwidthPerPixelPhaseEncode": 31.25,
        "CsaImage.EchoColumnPosition": 32,
        "CsaImage.EchoLinePosition": 32,
        "CsaImage.EchoPartitionPosition": 32,
        "CsaImage.GSWDDataType": "predicted",
        "CsaImage.ImaAbsTablePosition": [
          0,
          0,
          -1354
        ],
        "CsaImage.ImaCoilString": "C:D11-18,21-24,31-36,41-48,61-66",
        "CsaImage.ImaRelTablePosition": [
          0,
          0,
          0
        ],
        "CsaImage.MeasuredFourierLines": 0,
        "CsaImage.MultistepIndex": 0,
        "CsaImage.NonPlanarImage": 0,
        "CsaImage.NumberOfImagesInMosaic": 32,
        "CsaImage.PhaseEncodingDirectionPositive": 1,
        "CsaImage.ProtocolSliceNumber": 0,
        "CsaImage.RFSWDDataType": "predicted",
        "CsaImage.RealDwellTime": 3400,
        "CsaImage.SequenceMask": 0,
        "CsaImage.SliceNormalVector": [
          0.03463788,
          -0.32655537,
          0.94454317
        ],
        "CsaImage.SlicePosition_PCS": [
          -503.49964556,
          -624.04594438,
          -221.07940879
        ],
        "CsaImage.UsedChannelMask": -1,
        "CsaSeries.AbsTablePosition": -1354,
        "CsaSeries.B1rms": [
          7.07106781,
          2.17432154
        ],
        "CsaSeries.B1rmsSupervision": "NO",
        "CsaSeries.CoilForGradient": "void",
        "CsaSeries.CoilForGradient2": "AS092",
        "CsaSeries.CoilId": [
          255,
          162,
          163,
          167,
          165,
          238,
          166,
          238,
          238,
          238,
          238
        ],
        "CsaSeries.CoilString": "C:D11-18,21-24,31-36,41-48,61-66",
        "CsaSeries.FlowCompensation": "No",
        "CsaSeries.GradientDelayTime": [
          13.0,
          14.0,
          9.0
        ],
        "CsaSeries.GradientMode": "Fast",
        "CsaSeries.Isocentered": 0,
        "CsaSeries.LongModelName": "NUMARIS/4",
        "CsaSeries.MiscSequenceParam": [
          0,
          0,
          0,
          0,
          0,
          0,
          0,
          0,
          0,
          0,
          0,
          0,
          0,
          0,
          0,
          0,
          0,
          0,
          0,
          0,
          0,
          0,
          0,
          0,
          0,
          0,
          0,
          0,
          0,
          0,
          0,
          0,
          0,
          0,
          0,
          0,
          0,
          0
        ],
        "CsaSeries.MrPhoenixProtocol.acFlowComp[0]": 1,
        "CsaSeries.MrPhoenixProtocol.adFlipAngleDegree[0]": 90,
        "CsaSeries.MrPhoenixProtocol.alTE[0]": 30000,
        "CsaSeries.MrPhoenixProtocol.alTR[0]": 2000000,
        "CsaSeries.MrPhoenixProtocol.asCoilSelectMeas[0].aFFT_SCALE[0].bValid": 1,
        "CsaSeries.MrPhoenixProtocol.asCoilSelectMeas[0].aFFT_SCALE[0].flFactor": 1.98513,
        "CsaSeries.MrPhoenixProtocol.asCoilSelectMeas[0].aFFT_SCALE[0].lRxChannel": 1,
        "CsaSeries.MrPhoenixProtocol.asCoilSelectMeas[0].aFFT_SCALE[10].bValid": 1,
        "CsaSeries.MrPhoenixProtocol.asCoilSelectMeas[0].aFFT_SCALE[10].flFactor": 1.81545,
        "CsaSeries.MrPhoenixProtocol.asCoilSelectMeas[0].aFFT_SCALE[10].lRxChannel": 11,
        "CsaSeries.MrPhoenixProtocol.asCoilSelectMeas[0].aFFT_SCALE[11].bValid": 1,
        "CsaSeries.MrPhoenixProtocol.asCoilSelectMeas[0].aFFT_SCALE[11].flFactor": 1.84168,
        "CsaSeries.MrPhoenixProtocol.asCoilSelectMeas[0].aFFT_SCALE[11].lRxChannel": 12,
        "CsaSeries.MrPhoenixProtocol.asCoilSelectMeas[0].aFFT_SCALE[12].bValid": 1,
        "CsaSeries.MrPhoenixProtocol.asCoilSelectMeas[0].aFFT_SCALE[12].flFactor": 1.81937,
        "CsaSeries.MrPhoenixProtocol.asCoilSelectMeas[0].aFFT_SCALE[12].lRxChannel": 13,
        "CsaSeries.MrPhoenixProtocol.asCoilSelectMeas[0].aFFT_SCALE[13].bValid": 1,
        "CsaSeries.MrPhoenixProtocol.asCoilSelectMeas[0].aFFT_SCALE[13].flFactor": 1.87941,
        "CsaSeries.MrPhoenixProtocol.asCoilSelectMeas[0].aFFT_SCALE[13].lRxChannel": 14,
        "CsaSeries.MrPhoenixProtocol.asCoilSelectMeas[0].aFFT_SCALE[14].bValid": 1,
        "CsaSeries.MrPhoenixProtocol.asCoilSelectMeas[0].aFFT_SCALE[14].flFactor": 1.85886,
        "CsaSeries.MrPhoenixProtocol.asCoilSelectMeas[0].aFFT_SCALE[14].lRxChannel": 15,
        "CsaSeries.MrPhoenixProtocol.asCoilSelectMeas[0].aFFT_SCALE[15].bValid": 1,
        "CsaSeries.MrPhoenixProtocol.asCoilSelectMeas[0].aFFT_SCALE[15].flFactor": 1.78328,
        "CsaSeries.MrPhoenixProtocol.asCoilSelectMeas[0].aFFT_SCALE[15].lRxChannel": 16,
        "CsaSeries.MrPhoenixProtocol.asCoilSelectMeas[0].aFFT_SCALE[16].bValid": 1,
        "CsaSeries.MrPhoenixProtocol.asCoilSelectMeas[0].aFFT_SCALE[16].flFactor": 1.71576,
        "CsaSeries.MrPhoenixProtocol.asCoilSelectMeas[0].aFFT_SCALE[16].lRxChannel": 17,
        "CsaSeries.MrPhoenixProtocol.asCoilSelectMeas[0].aFFT_SCALE[17].bValid": 1,
        "CsaSeries.MrPhoenixProtocol.asCoilSelectMeas[0].aFFT_SCALE[17].flFactor": 1.73448,
        "CsaSeries.MrPhoenixProtocol.asCoilSelectMeas[0].aFFT_SCALE[17].lRxChannel": 18,
        "CsaSeries.MrPhoenixProtocol.asCoilSelectMeas[0].aFFT_SCALE[18].bValid": 1,
        "CsaSeries.MrPhoenixProtocol.asCoilSelectMeas[0].aFFT_SCALE[18].flFactor": 1.70144,
        "CsaSeries.MrPhoenixProtocol.asCoilSelectMeas[0].aFFT_SCALE[18].lRxChannel": 19,
        "CsaSeries.MrPhoenixProtocol.asCoilSelectMeas[0].aFFT_SCALE[19].bValid": 1,
        "CsaSeries.MrPhoenixProtocol.asCoilSelectMeas[0].aFFT_SCALE[19].flFactor": 1.65772,
        "CsaSeries.MrPhoenixProtocol.asCoilSelectMeas[0].aFFT_SCALE[19].lRxChannel": 20,
        "CsaSeries.MrPhoenixProtocol.asCoilSelectMeas[0].aFFT_SCALE[1].bValid": 1,
        "CsaSeries.MrPhoenixProtocol.asCoilSelectMeas[0].aFFT_SCALE[1].flFactor": 2.02455,
        "CsaSeries.MrPhoenixProtocol.asCoilSelectMeas[0].aFFT_SCALE[1].lRxChannel": 2,
        "CsaSeries.MrPhoenixProtocol.asCoilSelectMeas[0].aFFT_SCALE[20].bValid": 1,
        "CsaSeries.MrPhoenixProtocol.asCoilSelectMeas[0].aFFT_SCALE[20].flFactor": 1.70516,
        "CsaSeries.MrPhoenixProtocol.asCoilSelectMeas[0].aFFT_SCALE[20].lRxChannel": 21,
        "CsaSeries.MrPhoenixProtocol.asCoilSelectMeas[0].aFFT_SCALE[21].bValid": 1,
        "CsaSeries.MrPhoenixProtocol.asCoilSelectMeas[0].aFFT_SCALE[21].flFactor": 1.67182,
        "CsaSeries.MrPhoenixProtocol.asCoilSelectMeas[0].aFFT_SCALE[21].lRxChannel": 22,
        "CsaSeries.MrPhoenixProtocol.asCoilSelectMeas[0].aFFT_SCALE[22].bValid": 1,
        "CsaSeries.MrPhoenixProtocol.asCoilSelectMeas[0].aFFT_SCALE[22].flFactor": 1.68052,
        "CsaSeries.MrPhoenixProtocol.asCoilSelectMeas[0].aFFT_SCALE[22].lRxChannel": 23,
        "CsaSeries.MrPhoenixProtocol.asCoilSelectMeas[0].aFFT_SCALE[23].bValid": 1,
        "CsaSeries.MrPhoenixProtocol.asCoilSelectMeas[0].aFFT_SCALE[23].flFactor": 1.6758,
        "CsaSeries.MrPhoenixProtocol.asCoilSelectMeas[0].aFFT_SCALE[23].lRxChannel": 24,
        "CsaSeries.MrPhoenixProtocol.asCoilSelectMeas[0].aFFT_SCALE[24].bValid": 1,
        "CsaSeries.MrPhoenixProtocol.asCoilSelectMeas[0].aFFT_SCALE[24].flFactor": 1.57952,
        "CsaSeries.MrPhoenixProtocol.asCoilSelectMeas[0].aFFT_SCALE[24].lRxChannel": 25,
        "CsaSeries.MrPhoenixProtocol.asCoilSelectMeas[0].aFFT_SCALE[25].bValid": 1,
        "CsaSeries.MrPhoenixProtocol.asCoilSelectMeas[0].aFFT_SCALE[25].flFactor": 1.57727,
        "CsaSeries.MrPhoenixProtocol.asCoilSelectMeas[0].aFFT_SCALE[25].lRxChannel": 26,
        "CsaSeries.MrPhoenixProtocol.asCoilSelectMeas[0].aFFT_SCALE[26].bValid": 1,
        "CsaSeries.MrPhoenixProtocol.asCoilSelectMeas[0].aFFT_SCALE[26].flFactor": 1.59821,
        "CsaSeries.MrPhoenixProtocol.asCoilSelectMeas[0].aFFT_SCALE[26].lRxChannel": 27,
        "CsaSeries.MrPhoenixProtocol.asCoilSelectMeas[0].aFFT_SCALE[27].bValid": 1,
        "CsaSeries.MrPhoenixProtocol.asCoilSelectMeas[0].aFFT_SCALE[27].flFactor": 1.60559,
        "CsaSeries.MrPhoenixProtocol.asCoilSelectMeas[0].aFFT_SCALE[27].lRxChannel": 28,
        "CsaSeries.MrPhoenixProtocol.asCoilSelectMeas[0].aFFT_SCALE[28].bValid": 1,
        "CsaSeries.MrPhoenixProtocol.asCoilSelectMeas[0].aFFT_SCALE[28].flFactor": 1.56122,
        "CsaSeries.MrPhoenixProtocol.asCoilSelectMeas[0].aFFT_SCALE[28].lRxChannel": 29,
        "CsaSeries.MrPhoenixProtocol.asCoilSelectMeas[0].aFFT_SCALE[29].bValid": 1,
        "CsaSeries.MrPhoenixProtocol.asCoilSelectMeas[0].aFFT_SCALE[29].flFactor": 1.61002,
        "CsaSeries.MrPhoenixProtocol.asCoilSelectMeas[0].aFFT_SCALE[29].lRxChannel": 30,
        "CsaSeries.MrPhoenixProtocol.asCoilSelectMeas[0].aFFT_SCALE[2].bValid": 1,
        "CsaSeries.MrPhoenixProtocol.asCoilSelectMeas[0].aFFT_SCALE[2].flFactor": 2.00758,
        "CsaSeries.MrPhoenixProtocol.asCoilSelectMeas[0].aFFT_SCALE[2].lRxChannel": 3,
        "CsaSeries.MrPhoenixProtocol.asCoilSelectMeas[0].aFFT_SCALE[30].bValid": 1,
        "CsaSeries.MrPhoenixProtocol.asCoilSelectMeas[0].aFFT_SCALE[30].flFactor": 1.60278,
        "CsaSeries.MrPhoenixProtocol.asCoilSelectMeas[0].aFFT_SCALE[30].lRxChannel": 31,
        "CsaSeries.MrPhoenixProtocol.asCoilSelectMeas[0].aFFT_SCALE[31].bValid": 1,
        "CsaSeries.MrPhoenixProtocol.asCoilSelectMeas[0].aFFT_SCALE[31].flFactor": 1.62321,
        "CsaSeries.MrPhoenixProtocol.asCoilSelectMeas[0].aFFT_SCALE[31].lRxChannel": 32,
        "CsaSeries.MrPhoenixProtocol.asCoilSelectMeas[0].aFFT_SCALE[3].bValid": 1,
        "CsaSeries.MrPhoenixProtocol.asCoilSelectMeas[0].aFFT_SCALE[3].flFactor": 2.0049,
        "CsaSeries.MrPhoenixProtocol.asCoilSelectMeas[0].aFFT_SCALE[3].lRxChannel": 4,
        "CsaSeries.MrPhoenixProtocol.asCoilSelectMeas[0].aFFT_SCALE[4].bValid": 1,
        "CsaSeries.MrPhoenixProtocol.asCoilSelectMeas[0].aFFT_SCALE[4].flFactor": 1.97004,
        "CsaSeries.MrPhoenixProtocol.asCoilSelectMeas[0].aFFT_SCALE[4].lRxChannel": 5,
        "CsaSeries.MrPhoenixProtocol.asCoilSelectMeas[0].aFFT_SCALE[5].bValid": 1,
        "CsaSeries.MrPhoenixProtocol.asCoilSelectMeas[0].aFFT_SCALE[5].flFactor": 1.98419,
        "CsaSeries.MrPhoenixProtocol.asCoilSelectMeas[0].aFFT_SCALE[5].lRxChannel": 6,
        "CsaSeries.MrPhoenixProtocol.asCoilSelectMeas[0].aFFT_SCALE[6].bValid": 1,
        "CsaSeries.MrPhoenixProtocol.asCoilSelectMeas[0].aFFT_SCALE[6].flFactor": 1.91948,
        "CsaSeries.MrPhoenixProtocol.asCoilSelectMeas[0].aFFT_SCALE[6].lRxChannel": 7,
        "CsaSeries.MrPhoenixProtocol.asCoilSelectMeas[0].aFFT_SCALE[7].bValid": 1,
        "CsaSeries.MrPhoenixProtocol.asCoilSelectMeas[0].aFFT_SCALE[7].flFactor": 1.88022,
        "CsaSeries.MrPhoenixProtocol.asCoilSelectMeas[0].aFFT_SCALE[7].lRxChannel": 8,
        "CsaSeries.MrPhoenixProtocol.asCoilSelectMeas[0].aFFT_SCALE[8].bValid": 1,
        "CsaSeries.MrPhoenixProtocol.asCoilSelectMeas[0].aFFT_SCALE[8].flFactor": 1.88063,
        "CsaSeries.MrPhoenixProtocol.asCoilSelectMeas[0].aFFT_SCALE[8].lRxChannel": 9,
        "CsaSeries.MrPhoenixProtocol.asCoilSelectMeas[0].aFFT_SCALE[9].bValid": 1,
        "CsaSeries.MrPhoenixProtocol.asCoilSelectMeas[0].aFFT_SCALE[9].flFactor": 1.86748,
        "CsaSeries.MrPhoenixProtocol.asCoilSelectMeas[0].aFFT_SCALE[9].lRxChannel": 10,
        "CsaSeries.MrPhoenixProtocol.asCoilSelectMeas[0].asList[0].lElementSelected": 1,
        "CsaSeries.MrPhoenixProtocol.asCoilSelectMeas[0].asList[0].lRxChannelConnected": 1,
        "CsaSeries.MrPhoenixProtocol.asCoilSelectMeas[0].asList[0].sCoilElementID.lCoilCopy": 1,
        "CsaSeries.MrPhoenixProtocol.asCoilSelectMeas[0].asList[0].sCoilElementID.tCoilID": "32Channel_MGH",
        "CsaSeries.MrPhoenixProtocol.asCoilSelectMeas[0].asList[0].sCoilElementID.tElement": "D66",
        "CsaSeries.MrPhoenixProtocol.asCoilSelectMeas[0].asList[10].lElementSelected": 1,
        "CsaSeries.MrPhoenixProtocol.asCoilSelectMeas[0].asList[10].lRxChannelConnected": 11,
        "CsaSeries.MrPhoenixProtocol.asCoilSelectMeas[0].asList[10].sCoilElementID.lCoilCopy": 1,
        "CsaSeries.MrPhoenixProtocol.asCoilSelectMeas[0].asList[10].sCoilElementID.tCoilID": "32Channel_MGH",
        "CsaSeries.MrPhoenixProtocol.asCoilSelectMeas[0].asList[10].sCoilElementID.tElement": "D44",
        "CsaSeries.MrPhoenixProtocol.asCoilSelectMeas[0].asList[11].lElementSelected": 1,
        "CsaSeries.MrPhoenixProtocol.asCoilSelectMeas[0].asList[11].lRxChannelConnected": 12,
        "CsaSeries.MrPhoenixProtocol.asCoilSelectMeas[0].asList[11].sCoilElementID.lCoilCopy": 1,
        "CsaSeries.MrPhoenixProtocol.asCoilSelectMeas[0].asList[11].sCoilElementID.tCoilID": "32Channel_MGH",
        "CsaSeries.MrPhoenixProtocol.asCoilSelectMeas[0].asList[11].sCoilElementID.tElement": "D43",
        "CsaSeries.MrPhoenixProtocol.asCoilSelectMeas[0].asList[12].lElementSelected": 1,
        "CsaSeries.MrPhoenixProtocol.asCoilSelectMeas[0].asList[12].lRxChannelConnected": 13,
        "CsaSeries.MrPhoenixProtocol.asCoilSelectMeas[0].asList[12].sCoilElementID.lCoilCopy": 1,
        "CsaSeries.MrPhoenixProtocol.asCoilSelectMeas[0].asList[12].sCoilElementID.tCoilID": "32Channel_MGH",
        "CsaSeries.MrPhoenixProtocol.asCoilSelectMeas[0].asList[12].sCoilElementID.tElement": "D42",
        "CsaSeries.MrPhoenixProtocol.asCoilSelectMeas[0].asList[13].lElementSelected": 1,
        "CsaSeries.MrPhoenixProtocol.asCoilSelectMeas[0].asList[13].lRxChannelConnected": 14,
        "CsaSeries.MrPhoenixProtocol.asCoilSelectMeas[0].asList[13].sCoilElementID.lCoilCopy": 1,
        "CsaSeries.MrPhoenixProtocol.asCoilSelectMeas[0].asList[13].sCoilElementID.tCoilID": "32Channel_MGH",
        "CsaSeries.MrPhoenixProtocol.asCoilSelectMeas[0].asList[13].sCoilElementID.tElement": "D41",
        "CsaSeries.MrPhoenixProtocol.asCoilSelectMeas[0].asList[14].lElementSelected": 1,
        "CsaSeries.MrPhoenixProtocol.asCoilSelectMeas[0].asList[14].lRxChannelConnected": 15,
        "CsaSeries.MrPhoenixProtocol.asCoilSelectMeas[0].asList[14].sCoilElementID.lCoilCopy": 1,
        "CsaSeries.MrPhoenixProtocol.asCoilSelectMeas[0].asList[14].sCoilElementID.tCoilID": "32Channel_MGH",
        "CsaSeries.MrPhoenixProtocol.asCoilSelectMeas[0].asList[14].sCoilElementID.tElement": "D36",
        "CsaSeries.MrPhoenixProtocol.asCoilSelectMeas[0].asList[15].lElementSelected": 1,
        "CsaSeries.MrPhoenixProtocol.asCoilSelectMeas[0].asList[15].lRxChannelConnected": 16,
        "CsaSeries.MrPhoenixProtocol.asCoilSelectMeas[0].asList[15].sCoilElementID.lCoilCopy": 1,
        "CsaSeries.MrPhoenixProtocol.asCoilSelectMeas[0].asList[15].sCoilElementID.tCoilID": "32Channel_MGH",
        "CsaSeries.MrPhoenixProtocol.asCoilSelectMeas[0].asList[15].sCoilElementID.tElement": "D35",
        "CsaSeries.MrPhoenixProtocol.asCoilSelectMeas[0].asList[16].lElementSelected": 1,
        "CsaSeries.MrPhoenixProtocol.asCoilSelectMeas[0].asList[16].lRxChannelConnected": 17,
        "CsaSeries.MrPhoenixProtocol.asCoilSelectMeas[0].asList[16].sCoilElementID.lCoilCopy": 1,
        "CsaSeries.MrPhoenixProtocol.asCoilSelectMeas[0].asList[16].sCoilElementID.tCoilID": "32Channel_MGH",
        "CsaSeries.MrPhoenixProtocol.asCoilSelectMeas[0].asList[16].sCoilElementID.tElement": "D34",
        "CsaSeries.MrPhoenixProtocol.asCoilSelectMeas[0].asList[17].lElementSelected": 1,
        "CsaSeries.MrPhoenixProtocol.asCoilSelectMeas[0].asList[17].lRxChannelConnected": 18,
        "CsaSeries.MrPhoenixProtocol.asCoilSelectMeas[0].asList[17].sCoilElementID.lCoilCopy": 1,
        "CsaSeries.MrPhoenixProtocol.asCoilSelectMeas[0].asList[17].sCoilElementID.tCoilID": "32Channel_MGH",
        "CsaSeries.MrPhoenixProtocol.asCoilSelectMeas[0].asList[17].sCoilElementID.tElement": "D33",
        "CsaSeries.MrPhoenixProtocol.asCoilSelectMeas[0].asList[18].lElementSelected": 1,
        "CsaSeries.MrPhoenixProtocol.asCoilSelectMeas[0].asList[18].lRxChannelConnected": 19,
        "CsaSeries.MrPhoenixProtocol.asCoilSelectMeas[0].asList[18].sCoilElementID.lCoilCopy": 1,
        "CsaSeries.MrPhoenixProtocol.asCoilSelectMeas[0].asList[18].sCoilElementID.tCoilID": "32Channel_MGH",
        "CsaSeries.MrPhoenixProtocol.asCoilSelectMeas[0].asList[18].sCoilElementID.tElement": "D32",
        "CsaSeries.MrPhoenixProtocol.asCoilSelectMeas[0].asList[19].lElementSelected": 1,
        "CsaSeries.MrPhoenixProtocol.asCoilSelectMeas[0].asList[19].lRxChannelConnected": 20,
        "CsaSeries.MrPhoenixProtocol.asCoilSelectMeas[0].asList[19].sCoilElementID.lCoilCopy": 1,
        "CsaSeries.MrPhoenixProtocol.asCoilSelectMeas[0].asList[19].sCoilElementID.tCoilID": "32Channel_MGH",
        "CsaSeries.MrPhoenixProtocol.asCoilSelectMeas[0].asList[19].sCoilElementID.tElement": "D31",
        "CsaSeries.MrPhoenixProtocol.asCoilSelectMeas[0].asList[1].lElementSelected": 1,
        "CsaSeries.MrPhoenixProtocol.asCoilSelectMeas[0].asList[1].lRxChannelConnected": 2,
        "CsaSeries.MrPhoenixProtocol.asCoilSelectMeas[0].asList[1].sCoilElementID.lCoilCopy": 1,
        "CsaSeries.MrPhoenixProtocol.asCoilSelectMeas[0].asList[1].sCoilElementID.tCoilID": "32Channel_MGH",
        "CsaSeries.MrPhoenixProtocol.asCoilSelectMeas[0].asList[1].sCoilElementID.tElement": "D65",
        "CsaSeries.MrPhoenixProtocol.asCoilSelectMeas[0].asList[20].lElementSelected": 1,
        "CsaSeries.MrPhoenixProtocol.asCoilSelectMeas[0].asList[20].lRxChannelConnected": 21,
        "CsaSeries.MrPhoenixProtocol.asCoilSelectMeas[0].asList[20].sCoilElementID.lCoilCopy": 1,
        "CsaSeries.MrPhoenixProtocol.asCoilSelectMeas[0].asList[20].sCoilElementID.tCoilID": "32Channel_MGH",
        "CsaSeries.MrPhoenixProtocol.asCoilSelectMeas[0].asList[20].sCoilElementID.tElement": "D24",
        "CsaSeries.MrPhoenixProtocol.asCoilSelectMeas[0].asList[21].lElementSelected": 1,
        "CsaSeries.MrPhoenixProtocol.asCoilSelectMeas[0].asList[21].lRxChannelConnected": 22,
        "CsaSeries.MrPhoenixProtocol.asCoilSelectMeas[0].asList[21].sCoilElementID.lCoilCopy": 1,
        "CsaSeries.MrPhoenixProtocol.asCoilSelectMeas[0].asList[21].sCoilElementID.tCoilID": "32Channel_MGH",
        "CsaSeries.MrPhoenixProtocol.asCoilSelectMeas[0].asList[21].sCoilElementID.tElement": "D23",
        "CsaSeries.MrPhoenixProtocol.asCoilSelectMeas[0].asList[22].lElementSelected": 1,
        "CsaSeries.MrPhoenixProtocol.asCoilSelectMeas[0].asList[22].lRxChannelConnected": 23,
        "CsaSeries.MrPhoenixProtocol.asCoilSelectMeas[0].asList[22].sCoilElementID.lCoilCopy": 1,
        "CsaSeries.MrPhoenixProtocol.asCoilSelectMeas[0].asList[22].sCoilElementID.tCoilID": "32Channel_MGH",
        "CsaSeries.MrPhoenixProtocol.asCoilSelectMeas[0].asList[22].sCoilElementID.tElement": "D22",
        "CsaSeries.MrPhoenixProtocol.asCoilSelectMeas[0].asList[23].lElementSelected": 1,
        "CsaSeries.MrPhoenixProtocol.asCoilSelectMeas[0].asList[23].lRxChannelConnected": 24,
        "CsaSeries.MrPhoenixProtocol.asCoilSelectMeas[0].asList[23].sCoilElementID.lCoilCopy": 1,
        "CsaSeries.MrPhoenixProtocol.asCoilSelectMeas[0].asList[23].sCoilElementID.tCoilID": "32Channel_MGH",
        "CsaSeries.MrPhoenixProtocol.asCoilSelectMeas[0].asList[23].sCoilElementID.tElement": "D21",
        "CsaSeries.MrPhoenixProtocol.asCoilSelectMeas[0].asList[24].lElementSelected": 1,
        "CsaSeries.MrPhoenixProtocol.asCoilSelectMeas[0].asList[24].lRxChannelConnected": 25,
        "CsaSeries.MrPhoenixProtocol.asCoilSelectMeas[0].asList[24].sCoilElementID.lCoilCopy": 1,
        "CsaSeries.MrPhoenixProtocol.asCoilSelectMeas[0].asList[24].sCoilElementID.tCoilID": "32Channel_MGH",
        "CsaSeries.MrPhoenixProtocol.asCoilSelectMeas[0].asList[24].sCoilElementID.tElement": "D18",
        "CsaSeries.MrPhoenixProtocol.asCoilSelectMeas[0].asList[25].lElementSelected": 1,
        "CsaSeries.MrPhoenixProtocol.asCoilSelectMeas[0].asList[25].lRxChannelConnected": 26,
        "CsaSeries.MrPhoenixProtocol.asCoilSelectMeas[0].asList[25].sCoilElementID.lCoilCopy": 1,
        "CsaSeries.MrPhoenixProtocol.asCoilSelectMeas[0].asList[25].sCoilElementID.tCoilID": "32Channel_MGH",
        "CsaSeries.MrPhoenixProtocol.asCoilSelectMeas[0].asList[25].sCoilElementID.tElement": "D17",
        "CsaSeries.MrPhoenixProtocol.asCoilSelectMeas[0].asList[26].lElementSelected": 1,
        "CsaSeries.MrPhoenixProtocol.asCoilSelectMeas[0].asList[26].lRxChannelConnected": 27,
        "CsaSeries.MrPhoenixProtocol.asCoilSelectMeas[0].asList[26].sCoilElementID.lCoilCopy": 1,
        "CsaSeries.MrPhoenixProtocol.asCoilSelectMeas[0].asList[26].sCoilElementID.tCoilID": "32Channel_MGH",
        "CsaSeries.MrPhoenixProtocol.asCoilSelectMeas[0].asList[26].sCoilElementID.tElement": "D16",
        "CsaSeries.MrPhoenixProtocol.asCoilSelectMeas[0].asList[27].lElementSelected": 1,
        "CsaSeries.MrPhoenixProtocol.asCoilSelectMeas[0].asList[27].lRxChannelConnected": 28,
        "CsaSeries.MrPhoenixProtocol.asCoilSelectMeas[0].asList[27].sCoilElementID.lCoilCopy": 1,
        "CsaSeries.MrPhoenixProtocol.asCoilSelectMeas[0].asList[27].sCoilElementID.tCoilID": "32Channel_MGH",
        "CsaSeries.MrPhoenixProtocol.asCoilSelectMeas[0].asList[27].sCoilElementID.tElement": "D15",
        "CsaSeries.MrPhoenixProtocol.asCoilSelectMeas[0].asList[28].lElementSelected": 1,
        "CsaSeries.MrPhoenixProtocol.asCoilSelectMeas[0].asList[28].lRxChannelConnected": 29,
        "CsaSeries.MrPhoenixProtocol.asCoilSelectMeas[0].asList[28].sCoilElementID.lCoilCopy": 1,
        "CsaSeries.MrPhoenixProtocol.asCoilSelectMeas[0].asList[28].sCoilElementID.tCoilID": "32Channel_MGH",
        "CsaSeries.MrPhoenixProtocol.asCoilSelectMeas[0].asList[28].sCoilElementID.tElement": "D14",
        "CsaSeries.MrPhoenixProtocol.asCoilSelectMeas[0].asList[29].lElementSelected": 1,
        "CsaSeries.MrPhoenixProtocol.asCoilSelectMeas[0].asList[29].lRxChannelConnected": 30,
        "CsaSeries.MrPhoenixProtocol.asCoilSelectMeas[0].asList[29].sCoilElementID.lCoilCopy": 1,
        "CsaSeries.MrPhoenixProtocol.asCoilSelectMeas[0].asList[29].sCoilElementID.tCoilID": "32Channel_MGH",
        "CsaSeries.MrPhoenixProtocol.asCoilSelectMeas[0].asList[29].sCoilElementID.tElement": "D13",
        "CsaSeries.MrPhoenixProtocol.asCoilSelectMeas[0].asList[2].lElementSelected": 1,
        "CsaSeries.MrPhoenixProtocol.asCoilSelectMeas[0].asList[2].lRxChannelConnected": 3,
        "CsaSeries.MrPhoenixProtocol.asCoilSelectMeas[0].asList[2].sCoilElementID.lCoilCopy": 1,
        "CsaSeries.MrPhoenixProtocol.asCoilSelectMeas[0].asList[2].sCoilElementID.tCoilID": "32Channel_MGH",
        "CsaSeries.MrPhoenixProtocol.asCoilSelectMeas[0].asList[2].sCoilElementID.tElement": "D64",
        "CsaSeries.MrPhoenixProtocol.asCoilSelectMeas[0].asList[30].lElementSelected": 1,
        "CsaSeries.MrPhoenixProtocol.asCoilSelectMeas[0].asList[30].lRxChannelConnected": 31,
        "CsaSeries.MrPhoenixProtocol.asCoilSelectMeas[0].asList[30].sCoilElementID.lCoilCopy": 1,
        "CsaSeries.MrPhoenixProtocol.asCoilSelectMeas[0].asList[30].sCoilElementID.tCoilID": "32Channel_MGH",
        "CsaSeries.MrPhoenixProtocol.asCoilSelectMeas[0].asList[30].sCoilElementID.tElement": "D12",
        "CsaSeries.MrPhoenixProtocol.asCoilSelectMeas[0].asList[31].lElementSelected": 1,
        "CsaSeries.MrPhoenixProtocol.asCoilSelectMeas[0].asList[31].lRxChannelConnected": 32,
        "CsaSeries.MrPhoenixProtocol.asCoilSelectMeas[0].asList[31].sCoilElementID.lCoilCopy": 1,
        "CsaSeries.MrPhoenixProtocol.asCoilSelectMeas[0].asList[31].sCoilElementID.tCoilID": "32Channel_MGH",
        "CsaSeries.MrPhoenixProtocol.asCoilSelectMeas[0].asList[31].sCoilElementID.tElement": "D11",
        "CsaSeries.MrPhoenixProtocol.asCoilSelectMeas[0].asList[3].lElementSelected": 1,
        "CsaSeries.MrPhoenixProtocol.asCoilSelectMeas[0].asList[3].lRxChannelConnected": 4,
        "CsaSeries.MrPhoenixProtocol.asCoilSelectMeas[0].asList[3].sCoilElementID.lCoilCopy": 1,
        "CsaSeries.MrPhoenixProtocol.asCoilSelectMeas[0].asList[3].sCoilElementID.tCoilID": "32Channel_MGH",
        "CsaSeries.MrPhoenixProtocol.asCoilSelectMeas[0].asList[3].sCoilElementID.tElement": "D63",
        "CsaSeries.MrPhoenixProtocol.asCoilSelectMeas[0].asList[4].lElementSelected": 1,
        "CsaSeries.MrPhoenixProtocol.asCoilSelectMeas[0].asList[4].lRxChannelConnected": 5,
        "CsaSeries.MrPhoenixProtocol.asCoilSelectMeas[0].asList[4].sCoilElementID.lCoilCopy": 1,
        "CsaSeries.MrPhoenixProtocol.asCoilSelectMeas[0].asList[4].sCoilElementID.tCoilID": "32Channel_MGH",
        "CsaSeries.MrPhoenixProtocol.asCoilSelectMeas[0].asList[4].sCoilElementID.tElement": "D62",
        "CsaSeries.MrPhoenixProtocol.asCoilSelectMeas[0].asList[5].lElementSelected": 1,
        "CsaSeries.MrPhoenixProtocol.asCoilSelectMeas[0].asList[5].lRxChannelConnected": 6,
        "CsaSeries.MrPhoenixProtocol.asCoilSelectMeas[0].asList[5].sCoilElementID.lCoilCopy": 1,
        "CsaSeries.MrPhoenixProtocol.asCoilSelectMeas[0].asList[5].sCoilElementID.tCoilID": "32Channel_MGH",
        "CsaSeries.MrPhoenixProtocol.asCoilSelectMeas[0].asList[5].sCoilElementID.tElement": "D61",
        "CsaSeries.MrPhoenixProtocol.asCoilSelectMeas[0].asList[6].lElementSelected": 1,
        "CsaSeries.MrPhoenixProtocol.asCoilSelectMeas[0].asList[6].lRxChannelConnected": 7,
        "CsaSeries.MrPhoenixProtocol.asCoilSelectMeas[0].asList[6].sCoilElementID.lCoilCopy": 1,
        "CsaSeries.MrPhoenixProtocol.asCoilSelectMeas[0].asList[6].sCoilElementID.tCoilID": "32Channel_MGH",
        "CsaSeries.MrPhoenixProtocol.asCoilSelectMeas[0].asList[6].sCoilElementID.tElement": "D48",
        "CsaSeries.MrPhoenixProtocol.asCoilSelectMeas[0].asList[7].lElementSelected": 1,
        "CsaSeries.MrPhoenixProtocol.asCoilSelectMeas[0].asList[7].lRxChannelConnected": 8,
        "CsaSeries.MrPhoenixProtocol.asCoilSelectMeas[0].asList[7].sCoilElementID.lCoilCopy": 1,
        "CsaSeries.MrPhoenixProtocol.asCoilSelectMeas[0].asList[7].sCoilElementID.tCoilID": "32Channel_MGH",
        "CsaSeries.MrPhoenixProtocol.asCoilSelectMeas[0].asList[7].sCoilElementID.tElement": "D47",
        "CsaSeries.MrPhoenixProtocol.asCoilSelectMeas[0].asList[8].lElementSelected": 1,
        "CsaSeries.MrPhoenixProtocol.asCoilSelectMeas[0].asList[8].lRxChannelConnected": 9,
        "CsaSeries.MrPhoenixProtocol.asCoilSelectMeas[0].asList[8].sCoilElementID.lCoilCopy": 1,
        "CsaSeries.MrPhoenixProtocol.asCoilSelectMeas[0].asList[8].sCoilElementID.tCoilID": "32Channel_MGH",
        "CsaSeries.MrPhoenixProtocol.asCoilSelectMeas[0].asList[8].sCoilElementID.tElement": "D46",
        "CsaSeries.MrPhoenixProtocol.asCoilSelectMeas[0].asList[9].lElementSelected": 1,
        "CsaSeries.MrPhoenixProtocol.asCoilSelectMeas[0].asList[9].lRxChannelConnected": 10,
        "CsaSeries.MrPhoenixProtocol.asCoilSelectMeas[0].asList[9].sCoilElementID.lCoilCopy": 1,
        "CsaSeries.MrPhoenixProtocol.asCoilSelectMeas[0].asList[9].sCoilElementID.tCoilID": "32Channel_MGH",
        "CsaSeries.MrPhoenixProtocol.asCoilSelectMeas[0].asList[9].sCoilElementID.tElement": "D45",
        "CsaSeries.MrPhoenixProtocol.asCoilSelectMeas[0].iUsedRFactor": 1,
        "CsaSeries.MrPhoenixProtocol.asCoilSelectMeas[0].sCOILPLUGS.auiNmbrOfNibbles[0]": 2,
        "CsaSeries.MrPhoenixProtocol.asCoilSelectMeas[0].sCOILPLUGS.auiNmbrOfNibbles[10]": 2,
        "CsaSeries.MrPhoenixProtocol.asCoilSelectMeas[0].sCOILPLUGS.auiNmbrOfNibbles[1]": 2,
        "CsaSeries.MrPhoenixProtocol.asCoilSelectMeas[0].sCOILPLUGS.auiNmbrOfNibbles[2]": 2,
        "CsaSeries.MrPhoenixProtocol.asCoilSelectMeas[0].sCOILPLUGS.auiNmbrOfNibbles[3]": 2,
        "CsaSeries.MrPhoenixProtocol.asCoilSelectMeas[0].sCOILPLUGS.auiNmbrOfNibbles[4]": 2,
        "CsaSeries.MrPhoenixProtocol.asCoilSelectMeas[0].sCOILPLUGS.auiNmbrOfNibbles[5]": 2,
        "CsaSeries.MrPhoenixProtocol.asCoilSelectMeas[0].sCOILPLUGS.auiNmbrOfNibbles[6]": 2,
        "CsaSeries.MrPhoenixProtocol.asCoilSelectMeas[0].sCOILPLUGS.auiNmbrOfNibbles[7]": 2,
        "CsaSeries.MrPhoenixProtocol.asCoilSelectMeas[0].sCOILPLUGS.auiNmbrOfNibbles[8]": 2,
